M- 
Integration time: 6000 ms
Average: 1 scans
Nr of pixels used for smoothing: 0
Data measured with spectrometer serial number: 0604021S1
Wave   ;Sample
[nm]   ;[counts]
173,70;70,000
174,30;37,000
174,90;99,000
175,50;119,00
176,10;107,00
176,70;128,00
177,30;29,000
177,90;118,00
178,50;47,000
179,10;90,000
179,70;11,000
180,30;6,0000
180,89;181,00
181,49;129,00
182,09;174,00
182,69;57,000
183,29;92,000
183,89;49,000
184,49;66,000
185,09;-1,0000
185,69;10,0000
186,29;74,000
186,89;-42,000
187,48;-1,0000
188,08;-30,000
188,68;54,000
189,28;71,000
189,88;120,00
190,48;81,000
191,08;140,00
191,68;85,000
192,28;98,000
192,87;130,00
193,47;55,000
194,07;125,00
194,67;71,000
195,27;212,00
195,87;32,000
196,47;6,0000
197,06;129,00
197,66;16,000
198,26;163,00
198,86;-8,0000
199,46;4,0000
200,06;223,00
200,66;48,000
201,25;63,000
201,85;79,000
202,45;98,000
203,05;13,000
203,65;35,000
204,24;110,00
204,84;43,000
205,44;4,0000
206,04;75,000
206,64;21,000
207,24;110,00
207,83;-5,0000
208,43;54,000
209,03;334,00
209,63;119,00
210,22;137,00
210,82;36,000
211,42;52,000
212,02;2,0000
212,62;44,000
213,21;173,00
213,81;160,00
214,41;144,00
215,01;88,000
215,60;45,000
216,20;88,000
216,80;155,00
217,40;22,000
218,00;61,000
218,59;114,00
219,19;90,000
219,79;13,000
220,38;199,00
220,98;31,000
221,58;166,00
222,18;147,00
222,77;-10,0000
223,37;101,00
223,97;138,00
224,57;104,00
225,16;56,000
225,76;22,000
226,36;112,00
226,95;97,000
227,55;173,00
228,15;1,0000
228,75;13,000
229,34;-19,000
229,94;160,00
230,54;123,00
231,13;5,0000
231,73;14,000
232,33;28,000
232,92;65,000
233,52;55,000
234,12;44,000
234,71;88,000
235,31;57,000
235,91;105,00
236,50;136,00
237,10;18,000
237,70;162,00
238,29;100,000
238,89;168,00
239,49;129,00
240,08;45,000
240,68;106,00
241,28;92,000
241,87;-21,000
242,47;93,000
243,06;-13,000
243,66;124,00
244,26;80,000
244,85;96,000
245,45;136,00
246,05;57,000
246,64;268,00
247,24;128,00
247,83;119,00
248,43;144,00
249,03;229,00
249,62;160,00
250,22;-7,0000
250,81;190,00
251,41;-55,000
252,01;-10,0000
252,60;74,000
253,20;55,000
253,79;170,00
254,39;-11,000
254,98;49,000
255,58;85,000
256,18;176,00
256,77;62,000
257,37;139,00
257,96;92,000
258,56;100,000
259,15;320,00
259,75;204,00
260,34;71,000
260,94;38,000
261,53;140,00
262,13;161,00
262,73;17,000
263,32;76,000
263,92;131,00
264,51;168,00
265,11;59,000
265,70;77,000
266,30;8,0000
266,89;93,000
267,49;15,000
268,08;0
268,68;57,000
269,27;86,000
269,87;24,000
270,46;150,00
271,06;45,000
271,65;23,000
272,25;132,00
272,84;132,00
273,44;173,00
274,03;68,000
274,62;108,00
275,22;26,000
275,81;24,000
276,41;60,000
277,00;174,00
277,60;56,000
278,19;56,000
278,79;79,000
279,38;117,00
279,98;46,000
280,57;179,00
281,16;114,00
281,76;80,000
282,35;238,00
282,95;36,000
283,54;65,000
284,14;50,000
284,73;201,00
285,32;109,00
285,92;203,00
286,51;135,00
287,11;138,00
287,70;95,000
288,29;79,000
288,89;125,00
289,48;71,000
290,08;95,000
290,67;103,00
291,26;72,000
291,86;162,00
292,45;89,000
293,04;99,000
293,64;95,000
294,23;173,00
294,83;138,00
295,42;342,00
296,01;404,00
296,61;628,00
297,20;734,00
297,79;713,00
298,39;673,00
298,98;487,00
299,57;451,00
300,17;311,00
300,76;216,00
301,35;122,00
301,95;42,000
302,54;70,000
303,13;-65,000
303,73;103,00
304,32;85,000
304,91;115,00
305,51;-6,0000
306,10;73,000
306,69;173,00
307,28;22,000
307,88;134,00
308,47;175,00
309,06;171,00
309,66;303,00
310,25;417,00
310,84;488,00
311,43;479,00
312,03;722,00
312,62;863,00
313,21;1243,0
313,81;1381,0
314,40;1670,0
314,99;2529,0
315,58;3497,0
316,18;3530,0
316,77;3310,0
317,36;3115,0
317,95;2596,0
318,54;2329,0
319,14;1548,0
319,73;502,00
320,32;73,000
320,91;-43,000
321,51;161,00
322,10;149,00
322,69;83,000
323,28;138,00
323,87;259,00
324,47;231,00
325,06;354,00
325,65;331,00
326,24;340,00
326,83;453,00
327,43;472,00
328,02;441,00
328,61;478,00
329,20;365,00
329,79;608,00
330,39;551,00
330,98;436,00
331,57;348,00
332,16;369,00
332,75;371,00
333,34;476,00
333,93;542,00
334,53;664,00
335,12;1036,0
335,71;2247,0
336,30;4823,0
336,89;6719,0
337,48;6699,0
338,07;6619,0
338,67;6701,0
339,26;6404,0
339,85;5187,0
340,44;3049,0
341,03;667,00
341,62;173,00
342,21;159,00
342,80;206,00
343,39;137,00
343,99;123,00
344,58;136,00
345,17;181,00
345,76;69,000
346,35;189,00
346,94;260,00
347,53;113,00
348,12;220,00
348,71;254,00
349,30;401,00
349,89;425,00
350,48;377,00
351,07;560,00
351,66;705,00
352,26;1041,0
352,85;1623,0
353,44;2105,0
354,03;1762,0
354,62;2095,0
355,21;2197,0
355,80;2486,0
356,39;3509,0
356,98;5164,0
357,57;5357,0
358,16;5556,0
358,75;5428,0
359,34;5228,0
359,93;4765,0
360,52;3753,0
361,11;1922,0
361,70;313,00
362,29;218,00
362,88;146,00
363,47;277,00
364,06;216,00
364,65;287,00
365,24;217,00
365,83;253,00
366,42;322,00
367,01;357,00
367,60;256,00
368,19;251,00
368,78;399,00
369,37;375,00
369,95;631,00
370,54;781,00
371,13;746,00
371,72;808,00
372,31;806,00
372,90;878,00
373,49;893,00
374,08;1119,0
374,67;1591,0
375,26;1906,0
375,85;2089,0
376,44;2047,0
377,03;1976,0
377,61;1924,0
378,20;1817,0
378,79;1623,0
379,38;1512,0
379,97;2427,0
380,56;2497,0
381,15;2507,0
381,74;2511,0
382,33;2365,0
382,91;2091,0
383,50;1683,0
384,09;901,00
384,68;544,00
385,27;556,00
385,86;493,00
386,45;505,00
387,03;548,00
387,62;716,00
388,21;654,00
388,80;733,00
389,39;674,00
389,98;702,00
390,57;725,00
391,15;762,00
391,74;730,00
392,33;674,00
392,92;625,00
393,51;729,00
394,09;819,00
394,68;673,00
395,27;702,00
395,86;588,00
396,45;740,00
397,03;566,00
397,62;483,00
398,21;446,00
398,80;780,00
399,39;1057,0
399,97;1132,0
400,56;1116,0
401,15;1012,0
401,74;1085,0
402,32;1051,0
402,91;740,00
403,50;404,00
404,09;484,00
404,67;619,00
405,26;930,00
405,85;991,00
406,44;1099,0
407,02;1117,0
407,61;1152,0
408,20;1126,0
408,78;927,00
409,37;660,00
409,96;522,00
410,55;271,00
411,13;429,00
411,72;267,00
412,31;288,00
412,89;419,00
413,48;396,00
414,07;428,00
414,65;385,00
415,24;435,00
415,83;338,00
416,42;403,00
417,00;404,00
417,59;280,00
418,18;312,00
418,76;391,00
419,35;559,00
419,94;573,00
420,52;716,00
421,11;707,00
421,69;678,00
422,28;579,00
422,87;552,00
423,45;579,00
424,04;240,00
424,63;381,00
425,21;474,00
425,80;543,00
426,38;752,00
426,97;1030,0
427,56;830,00
428,14;926,00
428,73;940,00
429,31;740,00
429,90;685,00
430,49;577,00
431,07;310,00
431,66;352,00
432,24;280,00
432,83;266,00
433,42;356,00
434,00;668,00
434,59;539,00
435,17;412,00
435,76;568,00
436,34;615,00
436,93;359,00
437,51;383,00
438,10;223,00
438,69;128,00
439,27;-7,0000
439,86;152,00
440,44;204,00
441,03;321,00
441,61;218,00
442,20;189,00
442,78;223,00
443,37;127,00
443,95;133,00
444,54;147,00
445,12;134,00
445,71;277,00
446,29;64,000
446,88;150,00
447,46;261,00
448,05;309,00
448,63;368,00
449,22;195,00
449,80;265,00
450,39;98,000
450,97;223,00
451,56;143,00
452,14;159,00
452,72;243,00
453,31;106,00
453,89;220,00
454,48;62,000
455,06;113,00
455,65;326,00
456,23;179,00
456,81;258,00
457,40;419,00
457,98;344,00
458,57;403,00
459,15;242,00
459,74;308,00
460,32;306,00
460,90;232,00
461,49;81,000
462,07;133,00
462,66;229,00
463,24;190,00
463,82;70,000
464,41;224,00
464,99;264,00
465,57;205,00
466,16;168,00
466,74;415,00
467,33;274,00
467,91;189,00
468,49;102,00
469,08;213,00
469,66;114,00
470,24;112,00
470,83;120,00
471,41;149,00
471,99;233,00
472,58;159,00
473,16;237,00
473,74;476,00
474,33;245,00
474,91;87,000
475,49;105,00
476,08;110,00
476,66;159,00
477,24;131,00
477,82;40,000
478,41;80,000
478,99;215,00
479,57;82,000
480,16;128,00
480,74;92,000
481,32;130,00
481,90;62,000
482,49;250,00
483,07;190,00
483,65;285,00
484,23;214,00
484,82;154,00
485,40;210,00
485,98;197,00
486,56;101,00
487,15;208,00
487,73;340,00
488,31;163,00
488,89;225,00
489,47;212,00
490,06;208,00
490,64;160,00
491,22;239,00
491,80;185,00
492,39;134,00
492,97;114,00
493,55;187,00
494,13;92,000
494,71;143,00
495,29;1,0000
495,88;103,00
496,46;66,000
497,04;19,000
497,62;189,00
498,20;82,000
498,78;204,00
499,37;67,000
499,95;195,00
500,53;115,00
501,11;325,00
501,69;-23,000
502,27;115,00
502,85;170,00
503,44;178,00
504,02;112,00
504,60;167,00
505,18;166,00
505,76;188,00
506,34;129,00
506,92;114,00
507,50;-30,000
508,08;68,000
508,67;138,00
509,25;182,00
509,83;11,000
510,41;126,00
510,99;46,000
511,57;137,00
512,15;25,000
512,73;39,000
513,31;109,00
513,89;77,000
514,47;210,00
515,05;234,00
515,63;242,00
516,21;147,00
516,79;57,000
517,38;106,00
517,96;84,000
518,54;85,000
519,12;71,000
519,70;85,000
520,28;74,000
520,86;108,00
521,44;129,00
522,02;216,00
522,60;128,00
523,18;60,000
523,76;87,000
524,34;61,000
524,92;151,00
525,50;101,00
526,08;161,00
526,66;43,000
527,24;110,00
527,82;90,000
528,39;129,00
528,97;34,000
529,55;107,00
530,13;118,00
530,71;137,00
531,29;118,00
531,87;189,00
532,45;132,00
533,03;201,00
533,61;86,000
534,19;155,00
534,77;208,00
535,35;183,00
535,93;169,00
536,51;189,00
537,08;-152,00
537,66;27,000
538,24;86,000
538,82;117,00
539,40;39,000
539,98;85,000
540,56;109,00
541,14;59,000
541,72;44,000
542,29;99,000
542,87;10,0000
543,45;-5,0000
544,03;-30,000
544,61;-160,00
545,19;-92,000
545,77;-204,00
546,34;-251,00
546,92;-87,000
547,50;-169,00
548,08;-92,000
548,66;14,000
549,23;163,00
549,81;143,00
550,39;149,00
550,97;139,00
551,55;78,000
552,13;17,000
552,70;131,00
553,28;52,000
553,86;-6,0000
554,44;93,000
555,01;159,00
555,59;157,00
556,17;95,000
556,75;85,000
557,33;10,0000
557,90;158,00
558,48;74,000
559,06;-41,000
559,64;87,000
560,21;123,00
560,79;37,000
561,37;9,0000
561,95;64,000
562,52;122,00
563,10;204,00
563,68;88,000
564,25;143,00
564,83;25,000
565,41;104,00
565,99;81,000
566,56;88,000
567,14;46,000
567,72;88,000
568,29;66,000
568,87;169,00
569,45;125,00
570,02;56,000
570,60;12,000
571,18;153,00
571,75;34,000
572,33;10,0000
572,91;67,000
573,48;30,000
574,06;197,00
574,64;170,00
575,21;166,00
575,79;17,000
576,37;175,00
576,94;190,00
577,52;98,000
578,09;157,00
578,67;178,00
579,25;115,00
579,82;81,000
580,40;249,00
580,97;116,00
581,55;119,00
582,13;180,00
582,70;35,000
583,28;-11,000
583,85;28,000
584,43;187,00
585,01;36,000
585,58;135,00
586,16;117,00
586,73;115,00
587,31;128,00
587,88;36,000
588,46;116,00
589,03;197,00
589,61;94,000
590,18;135,00
590,76;64,000
591,34;120,00
591,91;68,000
592,49;159,00
593,06;64,000
593,64;128,00
594,21;124,00
594,79;90,000
595,36;80,000
595,94;46,000
596,51;122,00
597,09;159,00
597,66;175,00
598,24;132,00
598,81;82,000
599,38;153,00
599,96;207,00
600,53;144,00
601,11;-372,00
601,68;79,000
602,26;82,000
602,83;200,00
603,41;164,00
603,98;84,000
604,56;45,000
605,13;20,000
605,70;69,000
606,28;184,00
606,85;76,000
607,43;69,000
608,00;31,000
608,57;95,000
609,15;45,000
609,72;102,00
610,30;131,00
610,87;182,00
611,44;53,000
612,02;126,00
612,59;268,00
613,16;113,00
613,74;68,000
614,31;30,000
614,89;119,00
615,46;72,000
616,03;68,000
616,61;46,000
617,18;24,000
617,75;154,00
618,33;94,000
618,90;224,00
619,47;21,000
620,05;92,000
620,62;55,000
621,19;68,000
621,77;113,00
622,34;98,000
622,91;130,00
623,48;152,00
624,06;96,000
624,63;97,000
625,20;130,00
625,78;104,00
626,35;152,00
626,92;169,00
627,49;123,00
628,07;92,000
628,64;17,000
629,21;87,000
629,78;122,00
630,36;259,00
630,93;207,00
631,50;109,00
632,07;115,00
632,65;84,000
633,22;17,000
633,79;44,000
634,36;80,000
634,93;72,000
635,51;7,0000
636,08;56,000
636,65;189,00
637,22;86,000
637,79;108,00
638,37;191,00
638,94;117,00
639,51;54,000
640,08;125,00
640,65;243,00
641,22;130,00
641,80;137,00
642,37;-25,000
642,94;68,000
643,51;179,00
644,08;112,00
644,65;119,00
645,22;180,00
645,80;128,00
646,37;205,00
646,94;204,00
647,51;83,000
648,08;177,00
648,65;73,000
649,22;134,00
649,79;160,00
650,36;180,00
650,93;117,00
651,51;217,00
652,08;101,00
652,65;26,000
653,22;100,000
653,79;163,00
654,36;206,00
654,93;144,00
655,50;342,00
656,07;477,00
656,64;443,00
657,21;431,00
657,78;413,00
658,35;492,00
658,92;383,00
659,49;372,00
660,06;312,00
660,63;257,00
661,20;285,00
661,77;277,00
662,34;405,00
662,91;253,00
663,48;208,00
664,05;148,00
664,62;256,00
665,19;124,00
665,76;169,00
666,33;158,00
666,90;200,00
667,47;132,00
668,04;93,000
668,61;147,00
669,18;119,00
669,75;166,00
670,32;168,00
670,89;185,00
671,46;102,00
672,03;104,00
672,60;48,000
673,17;51,000
673,74;-1013,0
674,30;203,00
674,87;166,00
675,44;155,00
676,01;43,000
676,58;91,000
677,15;121,00
677,72;217,00
678,29;69,000
678,86;212,00
679,42;163,00
679,99;146,00
680,56;2,0000
681,13;182,00
681,70;142,00
682,27;132,00
682,84;171,00
683,40;93,000
683,97;173,00
684,54;152,00
685,11;51,000
685,68;41,000
686,25;199,00
686,81;249,00
687,38;-51,000
687,95;83,000
688,52;53,000
689,09;117,00
689,65;7,0000
690,22;24,000
690,79;114,00
691,36;-8,0000
691,92;49,000
692,49;81,000
693,06;65,000
693,63;41,000
694,20;231,00
694,76;33,000
695,33;171,00
695,90;102,00
696,47;110,00
697,03;244,00
697,60;55,000
698,17;47,000
698,73;64,000
699,30;173,00
699,87;56,000
700,44;67,000
701,00;123,00
701,57;135,00
702,14;129,00
702,70;-6,0000
703,27;-10,0000
703,84;95,000
704,40;72,000
704,97;88,000
705,54;-18,000
706,10;93,000
706,67;65,000
707,24;63,000
707,80;81,000
708,37;46,000
708,94;41,000
709,50;-18,000
710,07;130,00
710,64;48,000
711,20;22,000
711,77;175,00
712,33;204,00
712,90;81,000
713,47;158,00
714,03;118,00
714,60;160,00
715,16;-20,000
715,73;-5,0000
716,30;97,000
716,86;-48,000
717,43;126,00
717,99;42,000
718,56;125,00
719,12;-8,0000
719,69;164,00
720,26;122,00
720,82;51,000
721,39;73,000
721,95;82,000
722,52;208,00
723,08;40,000
723,65;74,000
724,21;107,00
724,78;93,000
725,34;127,00
725,91;24,000
726,47;38,000
727,04;157,00
727,60;36,000
728,17;128,00
728,73;84,000
729,30;159,00
729,86;61,000
730,43;75,000
730,99;149,00
731,56;103,00
732,12;24,000
732,68;-1,0000
733,25;186,00
733,81;48,000
734,38;96,000
734,94;121,00
735,51;101,00
736,07;114,00
736,63;38,000
737,20;33,000
737,76;252,00
738,33;161,00
738,89;160,00
739,46;128,00
740,02;114,00
740,58;11,000
741,15;202,00
741,71;173,00
742,27;67,000
742,84;42,000
743,40;119,00
743,97;168,00
744,53;161,00
745,09;88,000
745,66;161,00
746,22;216,00
746,78;-8,0000
747,35;232,00
747,91;88,000
748,47;270,00
749,04;123,00
749,60;265,00
750,16;192,00
750,72;74,000
751,29;80,000
751,85;129,00
752,41;59,000
752,98;128,00
753,54;155,00
754,10;113,00
754,66;21,000
755,23;59,000
755,79;-30,000
756,35;82,000
756,91;75,000
757,48;126,00
758,04;34,000
758,60;203,00
759,16;132,00
759,73;112,00
760,29;136,00
760,85;119,00
761,41;104,00
761,98;73,000
762,54;30,000
763,10;6,0000
763,66;160,00
764,22;100,000
764,79;113,00
765,35;165,00
765,91;2,0000
766,47;130,00
767,03;113,00
767,59;39,000
768,16;-43,000
768,72;41,000
769,28;106,00
769,84;100,000
770,40;-39,000
770,96;130,00
771,52;87,000
772,09;64,000
772,65;48,000
773,21;11,000
773,77;197,00
774,33;240,00
774,89;77,000
775,45;154,00
776,01;-27,000
776,57;234,00
777,13;150,00
777,70;122,00
778,26;256,00
778,82;221,00
779,38;51,000
779,94;104,00
780,50;256,00
781,06;104,00
781,62;2,0000
782,18;189,00
782,74;85,000
783,30;79,000
783,86;-18,000
784,42;90,000
784,98;-18,000
785,54;106,00
786,10;-21,000
786,66;-45,000
787,22;82,000
787,78;105,00
788,34;74,000
788,90;69,000
789,46;153,00
790,02;16,000
790,58;-53,000
791,14;132,00
791,70;-33,000
792,26;88,000
792,82;111,00
793,38;516,00
793,94;45,000
794,50;119,00
795,06;111,00
795,62;-47,000
796,17;58,000
796,73;14,000
797,29;81,000
797,85;15,000
798,41;24,000
798,97;22,000
799,53;42,000
800,09;56,000
800,65;113,00
801,21;108,00
801,76;56,000
802,32;127,00
802,88;108,00
803,44;-38,000
804,00;107,00
804,56;25,000
805,12;286,00
805,67;36,000
806,23;41,000
806,79;47,000
807,35;13,000
807,91;69,000
808,46;38,000
809,02;24,000
809,58;54,000
810,14;138,00
810,70;21,000
811,26;183,00
811,81;36,000
812,37;137,00
812,93;55,000
813,49;-28,000
814,04;1,0000
814,60;13,000
815,16;107,00
815,72;3,0000
816,27;161,00
816,83;46,000
817,39;-27,000
817,95;13,000
818,50;35,000
819,06;14,000
819,62;58,000
820,18;134,00
820,73;207,00
821,29;116,00
821,85;213,00
822,40;114,00
822,96;65,000
823,52;16,000
824,07;-151,00
824,63;108,00
825,19;104,00
825,74;113,00
826,30;0
826,86;53,000
827,41;-28,000
827,97;184,00
828,53;-29,000
829,08;112,00
829,64;143,00
830,20;37,000
830,75;2,0000
831,31;60,000
831,86;77,000
832,42;83,000
832,98;56,000
833,53;76,000
834,09;55,000
834,64;10,0000
835,20;103,00
835,76;-17,000
836,31;24,000
836,87;142,00
837,42;144,00
837,98;167,00
838,53;80,000
839,09;-99,000
839,64;55,000
840,20;-19,000
840,75;0
841,31;114,00
841,87;30,000
842,42;110,00
842,98;75,000
843,53;96,000
844,09;68,000
844,64;39,000
845,20;160,00
845,75;124,00
846,31;92,000
846,86;-32,000
847,41;86,000
847,97;87,000
848,52;258,00
849,08;19,000
849,63;-39,000
850,19;89,000
850,74;242,00
851,30;41,000
851,85;104,00
852,41;86,000
852,96;163,00
853,51;22,000
854,07;-317,00
854,62;72,000
855,18;161,00
855,73;46,000
856,28;141,00
856,84;-30,000
857,39;116,00
857,95;-5,0000
858,50;138,00
859,05;107,00
859,61;72,000
860,16;113,00
860,71;264,00
861,27;50,000
861,82;52,000
862,37;10,0000
862,93;123,00
863,48;55,000
864,03;62,000
864,59;96,000
865,14;235,00
865,69;80,000
866,25;134,00
866,80;163,00
867,35;39,000
867,90;120,00
868,46;158,00
869,01;122,00
869,56;27,000
870,12;91,000
870,67;6,0000
871,22;48,000
871,77;153,00
872,33;121,00
872,88;131,00
873,43;116,00
873,98;77,000
874,54;87,000
875,09;93,000
875,64;45,000
876,19;108,00
876,74;109,00
877,30;129,00
877,85;-113,00
878,40;59,000
878,95;-75,000
879,50;-2,0000
880,06;51,000
880,61;148,00
881,16;196,00
881,71;-44,000
882,26;37,000
882,81;19,000
883,37;65,000
883,92;-7,0000
884,47;74,000
885,02;97,000
885,57;224,00
886,12;170,00
886,67;18,000
887,22;113,00
887,78;100,000
888,33;46,000
888,88;105,00
889,43;161,00
889,98;86,000
890,53;115,00
891,08;124,00
891,63;92,000
892,18;107,00
892,73;37,000
893,28;104,00
893,83;15,000
894,38;41,000
894,93;97,000
895,48;122,00
896,03;-47,000
896,59;84,000
897,14;130,00
897,69;152,00
898,24;109,00
898,79;74,000
899,34;124,00
899,89;107,00
900,44;42,000
900,99;50,000
901,53;-12,000
902,08;3,0000
902,63;89,000
903,18;58,000
903,73;112,00
904,28;50,000
904,83;198,00
905,38;-11,000
905,93;157,00
906,48;86,000
907,03;-14,000
907,58;105,00
908,13;0
908,68;25,000
909,23;6,0000
909,78;39,000
910,32;-9,0000
910,87;35,000
911,42;29,000
911,97;63,000
912,52;46,000
913,07;82,000
913,62;94,000
914,17;39,000
914,71;102,00
915,26;11,000
915,81;0
916,36;12,000
916,91;53,000
917,46;17,000
918,00;-36,000
918,55;-15,000
919,10;18,000
919,65;73,000
920,20;80,000
920,74;-45,000
921,29;18,000
921,84;21,000
922,39;113,00
922,94;8,0000
923,48;66,000
924,03;70,000
924,58;15,000
925,13;-29,000
925,67;136,00
926,22;13,000
926,77;-10,0000
927,32;85,000
927,86;86,000
928,41;125,00
928,96;14,000
929,50;-9,0000
930,05;5,0000
930,60;18,000
931,15;42,000
931,69;109,00
932,24;61,000
932,79;-50,000
933,33;7,0000
933,88;68,000
934,43;23,000
934,97;60,000
935,52;158,00
936,07;88,000
936,61;39,000
937,16;61,000
937,71;81,000
938,25;27,000
938,80;37,000
939,34;84,000
939,89;83,000
940,44;198,00
940,98;123,00
941,53;47,000
942,07;-47,000
942,62;178,00
943,17;59,000
943,71;44,000
944,26;78,000
944,80;40,000
945,35;227,00
945,89;-72,000
946,44;70,000
946,99;-15,000
947,53;12,000
948,08;52,000
948,62;110,00
949,17;113,00
949,71;47,000
950,26;119,00
950,80;-39,000
951,35;67,000
951,89;50,000
952,44;45,000
952,98;-17,000
953,53;118,00
954,07;151,00
954,62;45,000
955,16;-14,000
955,71;-21,000
956,25;142,00
956,79;152,00
957,34;63,000
957,88;6,0000
958,43;17,000
958,97;7,0000
959,52;12,000
960,06;124,00
960,60;172,00
961,15;65,000
961,69;-18,000
962,24;-15,000
962,78;127,00
963,32;106,00
963,87;118,00
964,41;48,000
964,96;110,00
965,50;-67,000
966,04;106,00
966,59;45,000
967,13;144,00
967,67;108,00
968,22;19,000
968,76;98,000
969,30;34,000
969,85;-26,000
970,39;36,000
970,93;110,00
971,47;181,00
972,02;61,000
972,56;-27,000
973,10;177,00
973,65;89,000
974,19;149,00
974,73;39,000
975,27;-21,000
975,82;62,000
976,36;151,00
976,90;26,000
977,44;139,00
977,99;61,000
978,53;197,00
979,07;109,00
979,61;38,000
980,16;26,000
980,70;57,000
981,24;-3,0000
981,78;119,00
982,32;63,000
982,87;142,00
983,41;76,000
983,95;93,000
984,49;196,00
985,03;-19,000
985,57;99,000
986,12;46,000
986,66;240,00
987,20;19,000
987,74;11,000
988,28;194,00
988,82;59,000
989,36;58,000
989,91;62,000
990,45;165,00
990,99;40,000
991,53;32,000
992,07;27,000
992,61;107,00
993,15;26,000
993,69;-1,0000
994,23;95,000
994,77;132,00
995,31;2,0000
995,86;19,000
996,40;78,000
996,94;-9,0000
997,48;52,000
998,02;-73,000
998,56;-5,0000
999,10;-107,00
999,64;0
1000,18;42,000
1000,72;-22,000
1001,26;35,000
1001,80;8,0000
1002,34;110,00
1002,88;45,000
1003,42;71,000
1003,96;52,000
1004,50;-2,0000
1005,04;-23,000
1005,58;71,000
1006,12;9,0000
1006,66;69,000
1007,20;71,000
1007,73;171,00
1008,27;91,000
1008,81;80,000
1009,35;40,000
1009,89;62,000
1010,43;64,000
1010,97;172,00
1011,51;-29,000
1012,05;-1,0000
1012,59;99,000
1013,13;174,00
1013,66;172,00
1014,20;73,000
1014,74;106,00
1015,28;41,000
1015,82;113,00
1016,36;2,0000
1016,90;-16,000
1017,43;43,000
1017,97;118,00
1018,51;-3,0000
1019,05;85,000
1019,59;98,000
1020,13;64,000
1020,66;81,000
1021,20;15,000
1021,74;-31,000
1022,28;41,000
1022,81;32,000
1023,35;26,000
1023,89;14,000
1024,43;43,000
1024,97;26,000
1025,50;155,00
1026,04;25,000
1026,58;145,00
1027,12;50,000
1027,65;41,000
1028,19;176,00
1028,73;-28,000
1029,26;158,00
1029,80;90,000
1030,34;74,000
1030,88;-86,000
1031,41;36,000
1031,95;109,00
1032,49;7,0000
1033,02;38,000
1033,56;123,00
1034,10;37,000
1034,63;98,000
1035,17;-52,000
1035,71;34,000
1036,24;-30,000
1036,78;10,0000
1037,32;-22,000
1037,85;166,00
1038,39;36,000
1038,92;19,000
1039,46;37,000
1040,00;110,00
1040,53;146,00
1041,07;116,00
1041,60;-19,000
1042,14;7,0000
1042,68;103,00
1043,21;64,000
1043,75;11,000
1044,28;135,00
1044,82;24,000
1045,35;47,000
1045,89;217,00
1046,42;111,00
1046,96;103,00
1047,49;65,000
1048,03;57,000
1048,57;91,000
1049,10;147,00
1049,64;45,000
1050,17;48,000
1050,70;10,0000
1051,24;116,00
1051,77;286,00
1052,31;151,00
1052,84;66,000
1053,38;96,000
1053,91;92,000
1054,45;-10,0000
1054,98;16,000
1055,52;22,000
1056,05;123,00
1056,59;-22,000
1057,12;12,000
1057,65;-17,000
1058,19;58,000
1058,72;300,00
1059,26;35,000
1059,79;14,000
1060,32;6,0000
1060,86;102,00
1061,39;16,000
1061,93;26,000
1062,46;88,000
1062,99;-37,000
1063,53;55,000
1064,06;142,00
1064,59;43,000
1065,13;34,000
1065,66;25,000
1066,19;2,0000
1066,73;106,00
1067,26;16,000
1067,79;119,00
1068,33;39,000
1068,86;12,000
1069,39;-90,000
1069,92;83,000
1070,46;53,000
1070,99;16,000
1071,52;21,000
1072,05;78,000
1072,59;239,00
1073,12;61,000
1073,65;63,000
1074,18;59,000
1074,72;94,000
1075,25;19,000
1075,78;124,00
1076,31;-36,000
1076,85;128,00
1077,38;99,000
1077,91;-11,000
1078,44;29,000
1078,97;103,00
1079,51;4,0000
1080,04;-55,000
1080,57;110,00
1081,10;-9,0000
1081,63;-31,000
1082,16;7,0000
1082,70;-18,000
1083,23;89,000
1083,76;76,000
1084,29;21,000
1084,82;-17,000
1085,35;10,0000
1085,88;-5,0000
1086,41;11,000
1086,94;4,0000
1087,48;26,000
1088,01;92,000
1088,54;40,000
1089,07;20,000
1089,60;21,000
1090,13;141,00
1090,66;90,000
1091,19;145,00
1091,72;-25,000
1092,25;23,000
1092,78;122,00
1093,31;43,000
1093,84;28,000
1094,37;-9,0000
1094,90;47,000
1095,43;105,00
1095,96;102,00
1096,49;44,000
1097,02;53,000
1097,55;205,00
1098,08;94,000
1098,61;51,000
1099,14;-35,000
1099,67;139,00
1100,20;111,00
